"Latest: Time (s)","Latest: Radiation (Counts)"
10,0
20,1
30,2
40,0
50,1
60,2
70,412
80,707
90,705
100,617
110,622
120,621
130,559
140,586
150,524
160,489
170,487
180,465
190,401
200,420
210,408
220,383
230,338
240,336
250,305
260,320
270,324
280,277
290,276
300,257
310,234
320,257
330,208
340,208
350,201
360,219
370,196
380,182
390,158
400,161
410,164
420,145
430,142
440,137
450,156
460,134
470,119
480,124
490,110
500,97
510,112
520,103
530,105
540,99
550,76
560,89
570,74
580,73
590,80
600,67
938,10
948,12
958,17
968,15
978,10
988,10
998,6
1008,8
1018,11
1028,16
1038,15
1048,7
1058,10
1068,11
1078,9
1088,5
1098,7
1108,9
1118,4
1128,11
1138,7
1148,4
1158,9
1168,6
1178,11
1188,5
1198,4
1208,7
1218,7
1228,2
1238,4
1248,4
1258,1
1268,2
1278,6
1288,3
1298,2
1308,5
1318,2
1328,4
1338,5
1348,4
1358,4
1368,0
1378,2
1388,3
1398,4
1408,1
1418,3
1428,4
1438,3
1448,3
1458,5
1468,3
1478,3
1488,3
1498,5
1508,0
1518,1
1528,3
2050,1
2060,2
